#ti(s) tf(s) exp m em
28.0 31.3 13.75 0.12 
31.3 34.6 13.90 0.19 
34.6 38.0 14.05 0.18 
38.0 41.3 14.43 0.27 
41.3 44.6 14.63 0.26 
44.6 48.0 14.94 0.24 
48.0 51.3 15.11 0.40 
51.3 54.6 15.30 0.28
54.6 58.0 15.58 0.35
58.0 61.3 15.40 0.45
61.3 74.6 15.79 0.19
74.6 87.9 16.31 0.27
94.6 124.6 16.46 0.30
131.5 161.5 16.89 0.38
#168.3 198.3 17.53 0.59